freq	dBm(jieshouf)
2.50000000000000000E10	-1.40998245437524039E2
2.50018181818181784E10	-1.40997197688395026E2
2.50036363636363657E10	-1.40996151401240399E2
2.50054545454545396E10	-1.40995099889911546E2
2.50072727272727269E10	-1.40994059359608936E2
2.50090909090909097E10	-1.40993023748673774E2
2.50109090909090881E10	-1.40991982048507536E2
2.50127272727272665E10	-1.40990942719727852E2
2.50145454545454582E10	-1.40989886505416617E2
2.50163636363636277E10	-1.40988803482973379E2
2.50181818181818194E10	-1.40987737784628675E2
2.50199999999999978E10	-1.40986708489868140E2
2.50218181818181806E10	-1.40985673418126112E2
2.50236363636363723E10	-1.40984615407358449E2
2.50254545454545418E10	-1.40983568706765405E2
2.50272727272727291E10	-1.40982530404527173E2
2.50290909090909119E10	-1.40981473131054136E2
2.50309090909090903E10	-1.40980403033804746E2
2.50327272727272732E10	-1.40979337285822592E2
2.50345454545454604E10	-1.40978281882470813E2
2.50363636363636299E10	-1.40977239783808095E2
2.50381818181818172E10	-1.40976209509047368E2
2.50400000000000000E10	-1.40975179294339514E2
2.50418181818181784E10	-1.40974118524970349E2
2.50436363636363701E10	-1.40973037879054486E2
2.50454545454545396E10	-1.40971982560344999E2
2.50472727272727314E10	-1.40970942153977097E2
2.50490909090909097E10	-1.40969882097782562E2
2.50509090909090926E10	-1.40968821495112562E2
2.50527272727272710E10	-1.40967786833291253E2
2.50545454545454582E10	-1.40966752130755224E2
2.50563636363636322E10	-1.40965692433584833E2
2.50581818181818194E10	-1.40964619881868369E2
2.50599999999999978E10	-1.40963548113091375E2
2.50618181818181807E10	-1.40962480099324527E2
2.50636363636363679E10	-1.40961429530027638E2
2.50654545454545374E10	-1.40960399837900585E2
2.50672727272727291E10	-1.40959368381471561E2
2.50690909090909120E10	-1.40958303676443730E2
2.50709090909090904E10	-1.40957222518220382E2
2.50727272727272688E10	-1.40956161159189963E2
2.50745454545454605E10	-1.40955113999018122E2
2.50763636363636300E10	-1.40954057655234988E2
2.50781818181818217E10	-1.40953001320716220E2
2.50800000000000001E10	-1.40951960048466818E2
2.50818181818181829E10	-1.40950917140205734E2
2.50836363636363702E10	-1.40949852443189050E2
2.50854545454545441E10	-1.40948778258925755E2
2.50872727272727314E10	-1.40947707663227950E2
2.50890909090909098E10	-1.40946641987611754E2
2.50909090909090882E10	-1.40945586016587576E2
2.50927272727272710E10	-1.40944549237080574E2
2.50945454545454627E10	-1.40943517220400061E2
2.50963636363636322E10	-1.40942454010416141E2
2.50981818181818195E10	-1.40941360416078565E2
2.51000000000000023E10	-1.40940280761783865E2
2.51018181818181807E10	-1.40939239872060029E2
2.51036363636363680E10	-1.40938205872898514E2
2.51054545454545419E10	-1.40937155424795768E2
2.51072727272727292E10	-1.40936096105492026E2
2.51090909090909076E10	-1.40935025246723411E2
2.51109090909090904E10	-1.40933943139074613E2
2.51127272727272688E10	-1.40932874528323704E2
2.51145454545454561E10	-1.40931826518206771E2
2.51163636363636300E10	-1.40930782467494997E2
2.51181818181818173E10	-1.40929723153611475E2
2.51199999999999957E10	-1.40928652163428247E2
2.51218181818181785E10	-1.40927588109187418E2
2.51236363636363702E10	-1.40926532250464431E2
2.51254545454545397E10	-1.40925464831243374E2
2.51272727272727314E10	-1.40924398440817855E2
2.51290909090909143E10	-1.40923352471362384E2
2.51309090909090926E10	-1.40922303991542930E2
2.51327272727272710E10	-1.40921235477049867E2
2.51345454545454583E10	-1.40920155487806897E2
2.51363636363636322E10	-1.40919078659077246E2
2.51381818181818195E10	-1.40918016074546126E2
2.51400000000000023E10	-1.40916961991352174E2
2.51418181818181807E10	-1.40915906277583747E2
2.51436363636363680E10	-1.40914853390810646E2
2.51454545454545420E10	-1.40913795557794730E2
2.51472727272727292E10	-1.40912715492759388E2
2.51490909090909076E10	-1.40911630395234755E2
2.51509090909090904E10	-1.40910574104932396E2
2.51527272727272688E10	-1.40909538372335374E2
2.51545454545454605E10	-1.40908483832726628E2
2.51563636363636300E10	-1.40907395836850391E2
2.51581818181818218E10	-1.40906306325479447E2
2.51600000000000001E10	-1.40905238082476902E2
2.51618181818181785E10	-1.40904184583867087E2
2.51636363636363658E10	-1.40903135410880842E2
2.51654545454545397E10	-1.40902081397811396E2
2.51672727272727270E10	-1.40901014692189852E2
2.51690909090909098E10	-1.40899936046258367E2
2.51709090909090882E10	-1.40898852061253632E2
2.51727272727272666E10	-1.40897779539503598E2
2.51745454545454583E10	-1.40896733998572299E2
2.51763636363636278E10	-1.40895687981741746E2
2.51781818181818196E10	-1.40894607764505397E2
2.51799999999999979E10	-1.40893509647484860E2
2.51818181818181808E10	-1.40892435318573805E2
2.51836363636363725E10	-1.40891389884137697E2
2.51854545454545420E10	-1.40890342234964461E2
2.51872727272727293E10	-1.40889273976717044E2
2.51890909090909121E10	-1.40888194883476348E2
2.51909090909090905E10	-1.40887116564899673E2
2.51927272727272733E10	-1.40886042863086880E2
2.51945454545454606E10	-1.40884974698940324E2
2.51963636363636301E10	-1.40883908331157337E2
2.51981818181818173E10	-1.40882843680089676E2
2.52000000000000002E10	-1.40881776727939156E2
2.52018181818181786E10	-1.40880699693218459E2
2.52036363636363703E10	-1.40879626379305334E2
2.52054545454545398E10	-1.40878567981791969E2
2.52072727272727315E10	-1.40877506625959459E2
2.52090909090909099E10	-1.40876427109052105E2
2.52109090909090927E10	-1.40875336206049684E2
2.52127272727272711E10	-1.40874262013111351E2
2.52145454545454584E10	-1.40873212687896232E2
2.52163636363636323E10	-1.40872157739567605E2
2.52181818181818196E10	-1.40871073038000283E2
2.52199999999999980E10	-1.40869976575071520E2
2.52218181818181808E10	-1.40868898064074521E2
2.52236363636363681E10	-1.40867848256923955E2
2.52254545454545376E10	-1.40866803640495375E2
2.52272727272727293E10	-1.40865728353743114E2
2.52290909090909121E10	-1.40864622442240339E2
2.52309090909090905E10	-1.40863526117538163E2
2.52327272727272689E10	-1.40862463326597065E2
2.52345454545454606E10	-1.40861417722109761E2
2.52363636363636301E10	-1.40860359273879165E2
2.52381818181818218E10	-1.40859279918342306E2
2.52400000000000002E10	-1.40858190089074742E2
2.52418181818181830E10	-1.40857102692996650E2
2.52436363636363703E10	-1.40856026941006207E2
2.52454545454545443E10	-1.40854958999721336E2
2.52472727272727315E10	-1.40853889928033493E2
2.52490909090909099E10	-1.40852815305704038E2
2.52509090909090883E10	-1.40851739056184355E2
2.52527272727272711E10	-1.40850667417324993E2
2.52545454545454584E10	-1.40849598957828404E2
2.52563636363636324E10	-1.40848519893059576E2
2.52581818181818196E10	-1.40847425568556983E2
2.52599999999999980E10	-1.40846336579232578E2
2.52618181818181764E10	-1.40845270927949340E2
2.52636363636363681E10	-1.40844218794275711E2
2.52654545454545376E10	-1.40843156786606527E2
2.52672727272727293E10	-1.40842067048124209E2
2.52690909090909077E10	-1.40840963576673239E2
2.52709090909090905E10	-1.40839874851277247E2
2.52727272727272689E10	-1.40838809279404087E2
2.52745454545454606E10	-1.40837748496283899E2
2.52763636363636301E10	-1.40836672325836676E2
2.52781818181818219E10	-1.40835580718702746E2
2.52800000000000002E10	-1.40834498710914269E2
2.52818181818181831E10	-1.40833435421689668E2
2.52836363636363703E10	-1.40832362890875062E2
2.52854545454545399E10	-1.40831264014035584E2
2.52872727272727271E10	-1.40830164790531565E2
2.52890909090909100E10	-1.40829092278156143E2
2.52909090909090883E10	-1.40828039574145936E2
2.52927272727272712E10	-1.40826976518360758E2
2.52945454545454584E10	-1.40825884512906274E2
2.52963636363636279E10	-1.40824782091873191E2
2.52981818181818197E10	-1.40823695320566000E2
2.53000000000000025E10	-1.40822622954734955E2
2.53018181818181809E10	-1.40821547950665193E2
2.53036363636363681E10	-1.40820462298736926E2
2.53054545454545421E10	-1.40819376975515143E2
2.53072727272727294E10	-1.40818308954591709E2
2.53090909090909078E10	-1.40817243026314753E2
2.53109090909090906E10	-1.40816151413899715E2
2.53127272727272690E10	-1.40815041559881049E2
2.53145454545454607E10	-1.40813948269809552E2
2.53163636363636302E10	-1.40812881768831977E2
2.53181818181818219E10	-1.40811816694112890E2
2.53200000000000003E10	-1.40810733359599372E2
2.53218181818181787E10	-1.40809641883203573E2
2.53236363636363704E10	-1.40808564779374068E2
2.53254545454545399E10	-1.40807493202287715E2
2.53272727272727316E10	-1.40806399203886734E2
2.53290909090909100E10	-1.40805286446566003E2
2.53309090909090928E10	-1.40804194427592400E2
2.53327272727272712E10	-1.40803137956220326E2
2.53345454545454585E10	-1.40802080643008631E2
2.53363636363636324E10	-1.40800986176388854E2
2.53381818181818197E10	-1.40799874070189857E2
2.53399999999999981E10	-1.40798783917476178E2
2.53418181818181809E10	-1.40797720336352628E2
2.53436363636363726E10	-1.40796647414116394E2
2.53454545454545421E10	-1.40795539931021230E2
2.53472727272727294E10	-1.40794428448705533E2
2.53490909090909122E10	-1.40793353200912796E2
2.53509090909090906E10	-1.40792296283315355E2
2.53527272727272734E10	-1.40791215041205131E2
2.53545454545454607E10	-1.40790109426399446E2
2.53563636363636302E10	-1.40789013548381137E2
2.53581818181818175E10	-1.40787942631528296E2
2.53600000000000003E10	-1.40786862400095791E2
2.53618181818181787E10	-1.40785751346770249E2
2.53636363636363660E10	-1.40784645768715788E2
2.53654545454545399E10	-1.40783569770939954E2
2.53672727272727272E10	-1.40782501526729598E2
2.53690909090909056E10	-1.40781413500623143E2
2.53709090909090884E10	-1.40780313521251377E2
2.53727272727272668E10	-1.40779232071316551E2
2.53745454545454630E10	-1.40778162055014455E2
2.53763636363636280E10	-1.40777065297023163E2
2.53781818181818242E10	-1.40775941862146170E2
2.53800000000000026E10	-1.40774840973650006E2
2.53818181818181809E10	-1.40773778610797362E2
2.53836363636363682E10	-1.40772708537253988E2
2.53854545454545422E10	-1.40771597599147591E2
2.53872727272727294E10	-1.40770488573196295E2
2.53890909090909123E10	-1.40769417730479107E2
2.53909090909090907E10	-1.40768349953163407E2
2.53927272727272690E10	-1.40767252948576149E2
2.53945454545454563E10	-1.40766143228221474E2
2.53963636363636303E10	-1.40765049199580083E2
2.53981818181818175E10	-1.40763964860631496E2
2.54000000000000004E10	-1.40762861836206943E2
2.54018181818181787E10	-1.40761748519436303E2
2.54036363636363705E10	-1.40760667671116879E2
2.54054545454545400E10	-1.40759610032419991E2
2.54072727272727317E10	-1.40758521076089438E2
2.54090909090909101E10	-1.40757401154643169E2
2.54109090909090884E10	-1.40756300725124239E2
2.54127272727272713E10	-1.40755233141917158E2
2.54145454545454585E10	-1.40754148612305841E2
2.54163636363636325E10	-1.40753028432034277E2
2.54181818181818198E10	-1.40751919734027586E2
2.54199999999999982E10	-1.40750837986702382E2
2.54218181818181765E10	-1.40749746064226611E2
2.54236363636363683E10	-1.40748635848764847E2
2.54254545454545378E10	-1.40747540657175452E2
2.54272727272727295E10	-1.40746470713676741E2
2.54290909090909079E10	-1.40745394286503656E2
2.54309090909090907E10	-1.40744282336722559E2
2.54327272727272691E10	-1.40743167147970727E2
2.54345454545454608E10	-1.40742089392368497E2
2.54363636363636303E10	-1.40741004486494714E2
2.54381818181818220E10	-1.40739881309397674E2
2.54400000000000004E10	-1.40738770726973317E2
2.54418181818181832E10	-1.40737693336228009E2
2.54436363636363705E10	-1.40736605370925760E2
2.54454545454545400E10	-1.40735487540535420E2
2.54472727272727273E10	-1.40734378390114712E2
2.54490909090909101E10	-1.40733300353346213E2
2.54509090909090885E10	-1.40732223585629335E2
2.54527272727272713E10	-1.40731116589291538E2
2.54545454545454586E10	-1.40730011817714229E2
2.54563636363636281E10	-1.40728931901690446E2
2.54581818181818198E10	-1.40727828517985154E2
2.54600000000000026E10	-1.40726696040063248E2
2.54618181818181810E10	-1.40725594922433817E2
2.54636363636363683E10	-1.40724527485153716E2
2.54654545454545422E10	-1.40723432822703853E2
2.54672727272727295E10	-1.40722302087874551E2
2.54690909090909079E10	-1.40721193323443461E2
2.54709090909090907E10	-1.40720113256114931E2
2.54727272727272691E10	-1.40719016086593851E2
2.54745454545454608E10	-1.40717902689617236E2
2.54763636363636303E10	-1.40716814896182907E2
2.54781818181818220E10	-1.40715742743537731E2
2.54800000000000004E10	-1.40714631003003587E2
2.54818181818181788E10	-1.40713503598972345E2
2.54836363636363705E10	-1.40712411648255342E2
2.54854545454545400E10	-1.40711325957343325E2
2.54872727272727317E10	-1.40710202368933279E2
2.54890909090909101E10	-1.40709080993568669E2
2.54909090909090930E10	-1.40708003633125101E2
2.54927272727272713E10	-1.40706918173312845E2
2.54945454545454586E10	-1.40705787754954526E2
2.54963636363636326E10	-1.40704666914079479E2
2.54981818181818198E10	-1.40703580684486496E2
2.54999999999999982E10	-1.40702486774043711E2
2.55018181818181811E10	-1.40701369263965681E2
2.55036363636363683E10	-1.40700276113455836E2
2.55054545454545423E10	-1.40699203370656489E2
2.55072727272727295E10	-1.40698088301896052E2
2.55090909090909079E10	-1.40696955011326619E2
2.55109090909090863E10	-1.40695865780151963E2
2.55127272727272691E10	-1.40694782180325895E2
2.55145454545454609E10	-1.40693651420062249E2
2.55163636363636304E10	-1.40692528772421266E2
2.55181818181818176E10	-1.40691454478189160E2
2.55200000000000005E10	-1.40690356845957565E2
2.55218181818181789E10	-1.40689219157090695E2
2.55236363636363706E10	-1.40688106150051384E2
2.55254545454545401E10	-1.40687012182402582E2
2.55272727272727318E10	-1.40685897093141477E2
2.55290909090909102E10	-1.40684775768551340E2
2.55309090909090930E10	-1.40683688228528370E2
2.55327272727272714E10	-1.40682602566667758E2
2.55345454545454587E10	-1.40681472213144865E2
2.55363636363636326E10	-1.40680354492560555E2
2.55381818181818199E10	-1.40679276459507219E2
2.55399999999999983E10	-1.40678164740034850E2
2.55418181818181811E10	-1.40677025010374424E2
2.55436363636363684E10	-1.40675929540500677E2
2.55454545454545379E10	-1.40674855100411333E2
2.55472727272727296E10	-1.40673733708539661E2
2.55490909090909124E10	-1.40672608704821189E2
2.55509090909090908E10	-1.40671521409079414E2
2.55527272727272692E10	-1.40670405830630663E2
2.55545454545454565E10	-1.40669268326386820E2
2.55563636363636304E10	-1.40668168916965231E2
2.55581818181818177E10	-1.40667072036409690E2
2.55600000000000005E10	-1.40665944210786931E2
2.55618181818181789E10	-1.40664828462116764E2
2.55636363636363706E10	-1.40663748668924837E2
2.55654545454545401E10	-1.40662639704093939E2
2.55672727272727318E10	-1.40661489025831288E2
2.55690909090909102E10	-1.40660385724320092E2
2.55709090909090886E10	-1.40659298211232997E2
2.55727272727272714E10	-1.40658161574880092E2
2.55745454545454631E10	-1.40657043912269009E2
2.55763636363636326E10	-1.40655953776191156E2
2.55781818181818199E10	-1.40654839477315674E2
2.55800000000000027E10	-1.40653720483464295E2
2.55818181818181811E10	-1.40652619651973554E2
2.55836363636363684E10	-1.40651513232694225E2
2.55854545454545423E10	-1.40650374845686477E2
2.55872727272727296E10	-1.40649255828271835E2
2.55890909090909080E10	-1.40648173760159989E2
2.55909090909090908E10	-1.40647041269557471E2
2.55927272727272692E10	-1.40645904562580060E2
2.55945454545454609E10	-1.40644827834664965E2
2.55963636363636304E10	-1.40643717220391640E2
2.55981818181818221E10	-1.40642580799334871E2
2.56000000000000005E10	-1.40641476991370906E2
2.56018181818181834E10	-1.40640364498203896E2
2.56036363636363706E10	-1.40639235836740006E2
2.56054545454545401E10	-1.40638113940041309E2
2.56072727272727318E10	-1.40637006689411637E2
2.56090909090909147E10	-1.40635889149598881E2
2.56109090909090931E10	-1.40634756090316881E2
2.56127272727272715E10	-1.40633668774324905E2
2.56145454545454587E10	-1.40632564808976257E2
2.56163636363636327E10	-1.40631402428360386E2
2.56181818181818155E10	-1.40630309512740181E2
2.56199999999999983E10	-1.40629219528964788E2
2.56218181818181767E10	-1.40628051452514202E2
2.56236363636363729E10	-1.40626942438939806E2
2.56254545454545379E10	-1.40625847172603113E2
2.56272727272727341E10	-1.40624696157600448E2
2.56290909090909125E10	-1.40623593701568295E2
2.56309090909090909E10	-1.40622491955910789E2
2.56327272727272737E10	-1.40621352899724394E2
2.56345454545454565E10	-1.40620249535144426E2
2.56363636363636349E10	-1.40619137734569177E2
2.56381818181818177E10	-1.40618006081004943E2
2.56399999999999961E10	-1.40616880036112191E2
2.56418181818181790E10	-1.40615752048600373E2
2.56436363636363662E10	-1.40614650427474608E2
2.56454545454545357E10	-1.40613520440413886E2
2.56472727272727274E10	-1.40612372845969880E2
2.56490909090909103E10	-1.40611293146223160E2
2.56509090909090887E10	-1.40610173294584317E2
2.56527272727272670E10	-1.40609017302280992E2
2.56545454545454632E10	-1.40607941442998730E2
2.56563636363636283E10	-1.40606813961779831E2
2.56581818181818244E10	-1.40605650060372556E2
2.56600000000000028E10	-1.40604576451320296E2
2.56618181818181856E10	-1.40603437083216365E2
2.56636363636363685E10	-1.40602265243051594E2
2.56654545454545424E10	-1.40601202313016715E2
2.56672727272727297E10	-1.40600069233489733E2
2.56690909090909081E10	-1.40598894085874693E2
2.56709090909090865E10	-1.40597827901436689E2
2.56727272727272693E10	-1.40596706181499553E2
2.56745454545454610E10	-1.40595539462246166E2
2.56763636363636305E10	-1.40594460668672494E2
2.56781818181818178E10	-1.40593334648506207E2
2.56800000000000006E10	-1.40592177924580808E2
2.56818181818181790E10	-1.40591090739450841E2
2.56836363636363663E10	-1.40589951970060723E2
2.56854545454545402E10	-1.40588794134351969E2
2.56872727272727275E10	-1.40587707206524648E2
2.56890909090909059E10	-1.40586571193418308E2
2.56909090909090887E10	-1.40585414347141358E2
2.56927272727272671E10	-1.40584324771758373E2
2.56945454545454588E10	-1.40583201720031870E2
2.56963636363636283E10	-1.40582048082629107E2
2.56981818181818200E10	-1.40580940774608543E2
2.56999999999999984E10	-1.40579820051036730E2
2.57018181818181812E10	-1.40578680749102780E2
2.57036363636363685E10	-1.40577564645266229E2
2.57054545454545380E10	-1.40576432818894892E2
2.57072727272727297E10	-1.40575297616391603E2
2.57090909090909125E10	-1.40574181454475755E2
2.57109090909090909E10	-1.40573039521900078E2
2.57127272727272693E10	-1.40571899393491107E2
2.57145454545454566E10	-1.40570789952483932E2
2.57163636363636305E10	-1.40569656921326169E2
2.57181818181818178E10	-1.40568512004221624E2
2.57200000000000006E10	-1.40567400369454099E2
2.57218181818181790E10	-1.40566277451631505E2
2.57236363636363707E10	-1.40565134368826472E2
2.57254545454545402E10	-1.40564013100356666E2
2.57272727272727320E10	-1.40562885581711505E2
2.57290909090909103E10	-1.40561748721163360E2
2.57309090909090887E10	-1.40560631449156070E2
2.57327272727272716E10	-1.40559492758537385E2
2.57345454545454588E10	-1.40558350458708547E2
2.57363636363636328E10	-1.40557242236877555E2
2.57381818181818200E10	-1.40556095677602522E2
2.57399999999999984E10	-1.40554937816363634E2
2.57418181818181768E10	-1.40553841401286705E2
2.57436363636363685E10	-1.40552705250272170E2
2.57454545454545380E10	-1.40551535772948988E2
2.57472727272727298E10	-1.40550440057034409E2
2.57490909090909081E10	-1.40549312277698424E2
2.57509090909090910E10	-1.40548138415310375E2
2.57527272727272694E10	-1.40547040164225590E2
2.57545454545454611E10	-1.40545912375961946E2
2.57563636363636306E10	-1.40544741188615996E2
2.57581818181818223E10	-1.40543649845181684E2
2.57600000000000007E10	-1.40542516217082847E2
2.57618181818181835E10	-1.40541340606602128E2
2.57636363636363708E10	-1.40540256193757318E2
2.57654545454545403E10	-1.40539116762919658E2
2.57672727272727276E10	-1.40537931626232604E2
2.57690909090909104E10	-1.40536851696029208E2
2.57709090909090888E10	-1.40535713656063588E2
2.57727272727272716E10	-1.40534520873241919E2
2.57745454545454589E10	-1.40533436113219157E2
2.57763636363636284E10	-1.40532303334146991E2
2.57781818181818201E10	-1.40531110756864708E2
2.57800000000000029E10	-1.40530014485304600E2
2.57818181818181813E10	-1.40528887316593698E2
2.57836363636363686E10	-1.40527707197072926E2
2.57854545454545425E10	-1.40526598108416234E2
2.57872727272727298E10	-1.40525473706794335E2
